"# Channel 1"
"# Trace 1"
Frequency, Formatted Data, Formatted Data
+2.50000000000E+004, +2.73462259792E+003, +0.00000000000E+000
+2.51250000000E+004, +2.71696786661E+003, +0.00000000000E+000
+2.52500000000E+004, +2.70941256116E+003, +0.00000000000E+000
+2.53750000000E+004, +2.70593201567E+003, +0.00000000000E+000
+2.55000000000E+004, +2.69528008398E+003, +0.00000000000E+000
+2.56250000000E+004, +2.67630136593E+003, +0.00000000000E+000
+2.57500000000E+004, +2.65381153407E+003, +0.00000000000E+000
+2.58750000000E+004, +2.63288792664E+003, +0.00000000000E+000
+2.60000000000E+004, +2.61262941385E+003, +0.00000000000E+000
+2.61250000000E+004, +2.59146844880E+003, +0.00000000000E+000
+2.62500000000E+004, +2.57996899523E+003, +0.00000000000E+000
+2.63750000000E+004, +2.58476372618E+003, +0.00000000000E+000
+2.65000000000E+004, +2.59630301961E+003, +0.00000000000E+000
+2.66250000000E+004, +2.59028982270E+003, +0.00000000000E+000
+2.67500000000E+004, +2.57384292861E+003, +0.00000000000E+000
+2.68750000000E+004, +2.55313595120E+003, +0.00000000000E+000
+2.70000000000E+004, +2.53493815582E+003, +0.00000000000E+000
+2.71250000000E+004, +2.51638532326E+003, +0.00000000000E+000
+2.72500000000E+004, +2.49860894273E+003, +0.00000000000E+000
+2.73750000000E+004, +2.48200058769E+003, +0.00000000000E+000
+2.75000000000E+004, +2.46507334080E+003, +0.00000000000E+000
+2.76250000000E+004, +2.44646673241E+003, +0.00000000000E+000
+2.77500000000E+004, +2.43133438696E+003, +0.00000000000E+000
+2.78750000000E+004, +2.41860484484E+003, +0.00000000000E+000
+2.80000000000E+004, +2.40966172175E+003, +0.00000000000E+000
+2.81250000000E+004, +2.39948272766E+003, +0.00000000000E+000
+2.82500000000E+004, +2.38833895020E+003, +0.00000000000E+000
+2.83750000000E+004, +2.37509509803E+003, +0.00000000000E+000
+2.85000000000E+004, +2.35965928035E+003, +0.00000000000E+000
+2.86250000000E+004, +2.34446989044E+003, +0.00000000000E+000
+2.87500000000E+004, +2.32820129886E+003, +0.00000000000E+000
+2.88750000000E+004, +2.31297804374E+003, +0.00000000000E+000
+2.90000000000E+004, +2.29884525007E+003, +0.00000000000E+000
+2.91250000000E+004, +2.28328244209E+003, +0.00000000000E+000
+2.92500000000E+004, +2.26928090379E+003, +0.00000000000E+000
+2.93750000000E+004, +2.25435718292E+003, +0.00000000000E+000
+2.95000000000E+004, +2.24164522666E+003, +0.00000000000E+000
+2.96250000000E+004, +2.22761311556E+003, +0.00000000000E+000
+2.97500000000E+004, +2.21237840943E+003, +0.00000000000E+000
+2.98750000000E+004, +2.19878508544E+003, +0.00000000000E+000
+3.00000000000E+004, +2.18523982095E+003, +0.00000000000E+000
+3.01250000000E+004, +2.17091891421E+003, +0.00000000000E+000
+3.02500000000E+004, +2.15781570925E+003, +0.00000000000E+000
+3.03750000000E+004, +2.14314667058E+003, +0.00000000000E+000
+3.05000000000E+004, +2.12961001030E+003, +0.00000000000E+000
+3.06250000000E+004, +2.11600132864E+003, +0.00000000000E+000
+3.07500000000E+004, +2.10211230937E+003, +0.00000000000E+000
+3.08750000000E+004, +2.08785473250E+003, +0.00000000000E+000
+3.10000000000E+004, +2.07535898436E+003, +0.00000000000E+000
+3.11250000000E+004, +2.06150329097E+003, +0.00000000000E+000
+3.12500000000E+004, +2.04743164946E+003, +0.00000000000E+000
+3.13750000000E+004, +2.03319307122E+003, +0.00000000000E+000
+3.15000000000E+004, +2.01995243588E+003, +0.00000000000E+000
+3.16250000000E+004, +2.00663058796E+003, +0.00000000000E+000
+3.17500000000E+004, +1.99232793833E+003, +0.00000000000E+000
+3.18750000000E+004, +1.97877870642E+003, +0.00000000000E+000
+3.20000000000E+004, +1.96471317311E+003, +0.00000000000E+000
+3.21250000000E+004, +1.95251240786E+003, +0.00000000000E+000
+3.22500000000E+004, +1.93864284014E+003, +0.00000000000E+000
+3.23750000000E+004, +1.92533386571E+003, +0.00000000000E+000
+3.25000000000E+004, +1.91241343782E+003, +0.00000000000E+000
+3.26250000000E+004, +1.89970455008E+003, +0.00000000000E+000
+3.27500000000E+004, +1.88782702072E+003, +0.00000000000E+000
+3.28750000000E+004, +1.87295111974E+003, +0.00000000000E+000
+3.30000000000E+004, +1.86095486749E+003, +0.00000000000E+000
+3.31250000000E+004, +1.85292262734E+003, +0.00000000000E+000
+3.32500000000E+004, +1.84522232526E+003, +0.00000000000E+000
+3.33750000000E+004, +1.83533676567E+003, +0.00000000000E+000
+3.35000000000E+004, +1.82269765625E+003, +0.00000000000E+000
+3.36250000000E+004, +1.80856262657E+003, +0.00000000000E+000
+3.37500000000E+004, +1.79512237363E+003, +0.00000000000E+000
+3.38750000000E+004, +1.78077505607E+003, +0.00000000000E+000
+3.40000000000E+004, +1.76692561723E+003, +0.00000000000E+000
+3.41250000000E+004, +1.75173412456E+003, +0.00000000000E+000
+3.42500000000E+004, +1.73647994355E+003, +0.00000000000E+000
+3.43750000000E+004, +1.72141693069E+003, +0.00000000000E+000
+3.45000000000E+004, +1.70561829513E+003, +0.00000000000E+000
+3.46250000000E+004, +1.68973224130E+003, +0.00000000000E+000
+3.47500000000E+004, +1.67353444616E+003, +0.00000000000E+000
+3.48750000000E+004, +1.65646985027E+003, +0.00000000000E+000
+3.50000000000E+004, +1.64039760001E+003, +0.00000000000E+000
+3.51250000000E+004, +1.62347699511E+003, +0.00000000000E+000
+3.52500000000E+004, +1.60636738286E+003, +0.00000000000E+000
+3.53750000000E+004, +1.58868617153E+003, +0.00000000000E+000
+3.55000000000E+004, +1.57088463491E+003, +0.00000000000E+000
+3.56250000000E+004, +1.55241818814E+003, +0.00000000000E+000
+3.57500000000E+004, +1.53463055367E+003, +0.00000000000E+000
+3.58750000000E+004, +1.51580647444E+003, +0.00000000000E+000
+3.60000000000E+004, +1.49737200357E+003, +0.00000000000E+000
+3.61250000000E+004, +1.47783282803E+003, +0.00000000000E+000
+3.62500000000E+004, +1.45833952697E+003, +0.00000000000E+000
+3.63750000000E+004, +1.43739263090E+003, +0.00000000000E+000
+3.65000000000E+004, +1.41720413073E+003, +0.00000000000E+000
+3.66250000000E+004, +1.39647021976E+003, +0.00000000000E+000
+3.67500000000E+004, +1.37534054057E+003, +0.00000000000E+000
+3.68750000000E+004, +1.35379659636E+003, +0.00000000000E+000
+3.70000000000E+004, +1.33167810906E+003, +0.00000000000E+000
+3.71250000000E+004, +1.30998237257E+003, +0.00000000000E+000
+3.72500000000E+004, +1.28726470807E+003, +0.00000000000E+000
+3.73750000000E+004, +1.26325461381E+003, +0.00000000000E+000
+3.75000000000E+004, +1.23870181295E+003, +0.00000000000E+000
+3.76250000000E+004, +1.21407693539E+003, +0.00000000000E+000
+3.77500000000E+004, +1.18861719663E+003, +0.00000000000E+000
+3.78750000000E+004, +1.16251809700E+003, +0.00000000000E+000
+3.80000000000E+004, +1.13532949677E+003, +0.00000000000E+000
+3.81250000000E+004, +1.10581712380E+003, +0.00000000000E+000
+3.82500000000E+004, +1.07409475335E+003, +0.00000000000E+000
+3.83750000000E+004, +1.04058203056E+003, +0.00000000000E+000
+3.85000000000E+004, +1.00619699144E+003, +0.00000000000E+000
+3.86250000000E+004, +9.70362866656E+002, +0.00000000000E+000
+3.87500000000E+004, +9.32865329482E+002, +0.00000000000E+000
+3.88750000000E+004, +8.92507236576E+002, +0.00000000000E+000
+3.90000000000E+004, +8.48528340808E+002, +0.00000000000E+000
+3.91250000000E+004, +8.01306712784E+002, +0.00000000000E+000
+3.92500000000E+004, +7.51348681599E+002, +0.00000000000E+000
+3.93750000000E+004, +7.02286527599E+002, +0.00000000000E+000
+3.95000000000E+004, +6.56520904465E+002, +0.00000000000E+000
+3.96250000000E+004, +6.17470334515E+002, +0.00000000000E+000
+3.97500000000E+004, +5.90702808036E+002, +0.00000000000E+000
+3.98750000000E+004, +5.82996081320E+002, +0.00000000000E+000
+4.00000000000E+004, +6.12297033642E+002, +0.00000000000E+000
+4.01250000000E+004, +7.00289965340E+002, +0.00000000000E+000
+4.02500000000E+004, +8.60427746228E+002, +0.00000000000E+000
+4.03750000000E+004, +1.10506946994E+003, +0.00000000000E+000
+4.05000000000E+004, +1.44038737966E+003, +0.00000000000E+000
+4.06250000000E+004, +1.88852075736E+003, +0.00000000000E+000
+4.07500000000E+004, +2.49266832617E+003, +0.00000000000E+000
+4.08750000000E+004, +3.31068931691E+003, +0.00000000000E+000
+4.10000000000E+004, +4.35883789611E+003, +0.00000000000E+000
+4.11250000000E+004, +5.40684984559E+003, +0.00000000000E+000
+4.12500000000E+004, +5.96420547950E+003, +0.00000000000E+000
+4.13750000000E+004, +5.81261268684E+003, +0.00000000000E+000
+4.15000000000E+004, +5.31715054057E+003, +0.00000000000E+000
+4.16250000000E+004, +4.77477259680E+003, +0.00000000000E+000
+4.17500000000E+004, +4.30856148967E+003, +0.00000000000E+000
+4.18750000000E+004, +3.92688822069E+003, +0.00000000000E+000
+4.20000000000E+004, +3.61739419457E+003, +0.00000000000E+000
+4.21250000000E+004, +3.37817101343E+003, +0.00000000000E+000
+4.22500000000E+004, +3.18460400748E+003, +0.00000000000E+000
+4.23750000000E+004, +3.03476840029E+003, +0.00000000000E+000
+4.25000000000E+004, +2.91355019345E+003, +0.00000000000E+000
+4.26250000000E+004, +2.80759712953E+003, +0.00000000000E+000
+4.27500000000E+004, +2.71275591842E+003, +0.00000000000E+000
+4.28750000000E+004, +2.62516859028E+003, +0.00000000000E+000
+4.30000000000E+004, +2.54483058640E+003, +0.00000000000E+000
+4.31250000000E+004, +2.46973493373E+003, +0.00000000000E+000
+4.32500000000E+004, +2.40051965689E+003, +0.00000000000E+000
+4.33750000000E+004, +2.33740527907E+003, +0.00000000000E+000
+4.35000000000E+004, +2.28128982836E+003, +0.00000000000E+000
+4.36250000000E+004, +2.22582722755E+003, +0.00000000000E+000
+4.37500000000E+004, +2.17654975990E+003, +0.00000000000E+000
+4.38750000000E+004, +2.13080476531E+003, +0.00000000000E+000
+4.40000000000E+004, +2.08605901053E+003, +0.00000000000E+000
+4.41250000000E+004, +2.04599708007E+003, +0.00000000000E+000
+4.42500000000E+004, +2.00664684471E+003, +0.00000000000E+000
+4.43750000000E+004, +1.97078208244E+003, +0.00000000000E+000
+4.45000000000E+004, +1.93584506015E+003, +0.00000000000E+000
+4.46250000000E+004, +1.90282551160E+003, +0.00000000000E+000
+4.47500000000E+004, +1.87220259083E+003, +0.00000000000E+000
+4.48750000000E+004, +1.84218448399E+003, +0.00000000000E+000
+4.50000000000E+004, +1.81493348184E+003, +0.00000000000E+000
+4.51250000000E+004, +1.78755749658E+003, +0.00000000000E+000
+4.52500000000E+004, +1.76207256785E+003, +0.00000000000E+000
+4.53750000000E+004, +1.73613981999E+003, +0.00000000000E+000
+4.55000000000E+004, +1.71118630533E+003, +0.00000000000E+000
+4.56250000000E+004, +1.68704287956E+003, +0.00000000000E+000
+4.57500000000E+004, +1.66395972866E+003, +0.00000000000E+000
+4.58750000000E+004, +1.64135028909E+003, +0.00000000000E+000
+4.60000000000E+004, +1.61916053797E+003, +0.00000000000E+000
+4.61250000000E+004, +1.59784106246E+003, +0.00000000000E+000
+4.62500000000E+004, +1.57532309550E+003, +0.00000000000E+000
+4.63750000000E+004, +1.55432153239E+003, +0.00000000000E+000
+4.65000000000E+004, +1.53286057648E+003, +0.00000000000E+000
+4.66250000000E+004, +1.51186013648E+003, +0.00000000000E+000
+4.67500000000E+004, +1.49176376743E+003, +0.00000000000E+000
+4.68750000000E+004, +1.47110258999E+003, +0.00000000000E+000
+4.70000000000E+004, +1.45076575680E+003, +0.00000000000E+000
+4.71250000000E+004, +1.43072370943E+003, +0.00000000000E+000
+4.72500000000E+004, +1.41039186189E+003, +0.00000000000E+000
+4.73750000000E+004, +1.38983011391E+003, +0.00000000000E+000
+4.75000000000E+004, +1.36935726087E+003, +0.00000000000E+000
+4.76250000000E+004, +1.34878668979E+003, +0.00000000000E+000
+4.77500000000E+004, +1.32861935086E+003, +0.00000000000E+000
+4.78750000000E+004, +1.30796012358E+003, +0.00000000000E+000
+4.80000000000E+004, +1.28710098016E+003, +0.00000000000E+000
+4.81250000000E+004, +1.26590120796E+003, +0.00000000000E+000
+4.82500000000E+004, +1.24457308447E+003, +0.00000000000E+000
+4.83750000000E+004, +1.22264290034E+003, +0.00000000000E+000
+4.85000000000E+004, +1.20067206696E+003, +0.00000000000E+000
+4.86250000000E+004, +1.17841967797E+003, +0.00000000000E+000
+4.87500000000E+004, +1.15570080794E+003, +0.00000000000E+000
+4.88750000000E+004, +1.13242294879E+003, +0.00000000000E+000
+4.90000000000E+004, +1.10834421198E+003, +0.00000000000E+000
+4.91250000000E+004, +1.08380095672E+003, +0.00000000000E+000
+4.92500000000E+004, +1.05844536867E+003, +0.00000000000E+000
+4.93750000000E+004, +1.03224986612E+003, +0.00000000000E+000
+4.95000000000E+004, +1.00542356585E+003, +0.00000000000E+000
+4.96250000000E+004, +9.77439922020E+002, +0.00000000000E+000
+4.97500000000E+004, +9.48625095306E+002, +0.00000000000E+000
+4.98750000000E+004, +9.18396587213E+002, +0.00000000000E+000
+5.00000000000E+004, +8.86910968353E+002, +0.00000000000E+000
