

Frequency, Formatted Data, Formatted Data
+2.50000000000E+004, +2.30976744583E+001, +0.00000000000E+000
+2.51250000000E+004, +2.32159662306E+001, +0.00000000000E+000
+2.52500000000E+004, +2.33287125416E+001, +0.00000000000E+000
+2.53750000000E+004, +2.34495394887E+001, +0.00000000000E+000
+2.55000000000E+004, +2.35610955796E+001, +0.00000000000E+000
+2.56250000000E+004, +2.36789872147E+001, +0.00000000000E+000
+2.57500000000E+004, +2.37950722786E+001, +0.00000000000E+000
+2.58750000000E+004, +2.39095054733E+001, +0.00000000000E+000
+2.60000000000E+004, +2.40245066220E+001, +0.00000000000E+000
+2.61250000000E+004, +2.41408055334E+001, +0.00000000000E+000
+2.62500000000E+004, +2.42545392165E+001, +0.00000000000E+000
+2.63750000000E+004, +2.43718386995E+001, +0.00000000000E+000
+2.65000000000E+004, +2.44855663116E+001, +0.00000000000E+000
+2.66250000000E+004, +2.46060140594E+001, +0.00000000000E+000
+2.67500000000E+004, +2.47196731858E+001, +0.00000000000E+000
+2.68750000000E+004, +2.48323336515E+001, +0.00000000000E+000
+2.70000000000E+004, +2.49477523663E+001, +0.00000000000E+000
+2.71250000000E+004, +2.50627959640E+001, +0.00000000000E+000
+2.72500000000E+004, +2.51794674000E+001, +0.00000000000E+000
+2.73750000000E+004, +2.52927694971E+001, +0.00000000000E+000
+2.75000000000E+004, +2.54087080062E+001, +0.00000000000E+000
+2.76250000000E+004, +2.55265363949E+001, +0.00000000000E+000
+2.77500000000E+004, +2.56419133563E+001, +0.00000000000E+000
+2.78750000000E+004, +2.57538643202E+001, +0.00000000000E+000
+2.80000000000E+004, +2.58739535255E+001, +0.00000000000E+000
+2.81250000000E+004, +2.59893714168E+001, +0.00000000000E+000
+2.82500000000E+004, +2.61059880303E+001, +0.00000000000E+000
+2.83750000000E+004, +2.62216017180E+001, +0.00000000000E+000
+2.85000000000E+004, +2.63346399092E+001, +0.00000000000E+000
+2.86250000000E+004, +2.64519968201E+001, +0.00000000000E+000
+2.87500000000E+004, +2.65662876114E+001, +0.00000000000E+000
+2.88750000000E+004, +2.66824251311E+001, +0.00000000000E+000
+2.90000000000E+004, +2.67978662946E+001, +0.00000000000E+000
+2.91250000000E+004, +2.69165125378E+001, +0.00000000000E+000
+2.92500000000E+004, +2.70318382264E+001, +0.00000000000E+000
+2.93750000000E+004, +2.71447054726E+001, +0.00000000000E+000
+2.95000000000E+004, +2.72609364520E+001, +0.00000000000E+000
+2.96250000000E+004, +2.73770030389E+001, +0.00000000000E+000
+2.97500000000E+004, +2.74924507984E+001, +0.00000000000E+000
+2.98750000000E+004, +2.76095767176E+001, +0.00000000000E+000
+3.00000000000E+004, +2.77251664797E+001, +0.00000000000E+000
+3.01250000000E+004, +2.78378238686E+001, +0.00000000000E+000
+3.02500000000E+004, +2.79534306801E+001, +0.00000000000E+000
+3.03750000000E+004, +2.80689802333E+001, +0.00000000000E+000
+3.05000000000E+004, +2.81839542938E+001, +0.00000000000E+000
+3.06250000000E+004, +2.82973372311E+001, +0.00000000000E+000
+3.07500000000E+004, +2.84151143472E+001, +0.00000000000E+000
+3.08750000000E+004, +2.85295205195E+001, +0.00000000000E+000
+3.10000000000E+004, +2.86426805220E+001, +0.00000000000E+000
+3.11250000000E+004, +2.87584079416E+001, +0.00000000000E+000
+3.12500000000E+004, +2.88710827453E+001, +0.00000000000E+000
+3.13750000000E+004, +2.89905922235E+001, +0.00000000000E+000
+3.15000000000E+004, +2.91029336906E+001, +0.00000000000E+000
+3.16250000000E+004, +2.92189658891E+001, +0.00000000000E+000
+3.17500000000E+004, +2.93318453255E+001, +0.00000000000E+000
+3.18750000000E+004, +2.94464063096E+001, +0.00000000000E+000
+3.20000000000E+004, +2.95618227647E+001, +0.00000000000E+000
+3.21250000000E+004, +2.96791676907E+001, +0.00000000000E+000
+3.22500000000E+004, +2.97922845875E+001, +0.00000000000E+000
+3.23750000000E+004, +2.99094297568E+001, +0.00000000000E+000
+3.25000000000E+004, +3.00217584892E+001, +0.00000000000E+000
+3.26250000000E+004, +3.01370334826E+001, +0.00000000000E+000
+3.27500000000E+004, +3.02549939576E+001, +0.00000000000E+000
+3.28750000000E+004, +3.03662595593E+001, +0.00000000000E+000
+3.30000000000E+004, +3.04824942421E+001, +0.00000000000E+000
+3.31250000000E+004, +3.05966163667E+001, +0.00000000000E+000
+3.32500000000E+004, +3.07135633941E+001, +0.00000000000E+000
+3.33750000000E+004, +3.08292427263E+001, +0.00000000000E+000
+3.35000000000E+004, +3.09436228206E+001, +0.00000000000E+000
+3.36250000000E+004, +3.10577373704E+001, +0.00000000000E+000
+3.37500000000E+004, +3.11729821170E+001, +0.00000000000E+000
+3.38750000000E+004, +3.12870593269E+001, +0.00000000000E+000
+3.40000000000E+004, +3.14033202558E+001, +0.00000000000E+000
+3.41250000000E+004, +3.15194778404E+001, +0.00000000000E+000
+3.42500000000E+004, +3.16328036301E+001, +0.00000000000E+000
+3.43750000000E+004, +3.17475481230E+001, +0.00000000000E+000
+3.45000000000E+004, +3.18637872662E+001, +0.00000000000E+000
+3.46250000000E+004, +3.19759757881E+001, +0.00000000000E+000
+3.47500000000E+004, +3.20954735945E+001, +0.00000000000E+000
+3.48750000000E+004, +3.22071394782E+001, +0.00000000000E+000
+3.50000000000E+004, +3.23242526256E+001, +0.00000000000E+000
+3.51250000000E+004, +3.24343323074E+001, +0.00000000000E+000
+3.52500000000E+004, +3.25550034170E+001, +0.00000000000E+000
+3.53750000000E+004, +3.26653276663E+001, +0.00000000000E+000
+3.55000000000E+004, +3.27812658959E+001, +0.00000000000E+000
+3.56250000000E+004, +3.28990642212E+001, +0.00000000000E+000
+3.57500000000E+004, +3.30140956612E+001, +0.00000000000E+000
+3.58750000000E+004, +3.31274487583E+001, +0.00000000000E+000
+3.60000000000E+004, +3.32441003841E+001, +0.00000000000E+000
+3.61250000000E+004, +3.33567946383E+001, +0.00000000000E+000
+3.62500000000E+004, +3.34709297330E+001, +0.00000000000E+000
+3.63750000000E+004, +3.35870296567E+001, +0.00000000000E+000
+3.65000000000E+004, +3.37029777581E+001, +0.00000000000E+000
+3.66250000000E+004, +3.38202094652E+001, +0.00000000000E+000
+3.67500000000E+004, +3.39319200293E+001, +0.00000000000E+000
+3.68750000000E+004, +3.40485761692E+001, +0.00000000000E+000
+3.70000000000E+004, +3.41629272541E+001, +0.00000000000E+000
+3.71250000000E+004, +3.42813076448E+001, +0.00000000000E+000
+3.72500000000E+004, +3.43916232517E+001, +0.00000000000E+000
+3.73750000000E+004, +3.45099131801E+001, +0.00000000000E+000
+3.75000000000E+004, +3.46233151832E+001, +0.00000000000E+000
+3.76250000000E+004, +3.47383094712E+001, +0.00000000000E+000
+3.77500000000E+004, +3.48536963473E+001, +0.00000000000E+000
+3.78750000000E+004, +3.49677213374E+001, +0.00000000000E+000
+3.80000000000E+004, +3.50869919458E+001, +0.00000000000E+000
+3.81250000000E+004, +3.52015106761E+001, +0.00000000000E+000
+3.82500000000E+004, +3.53125965075E+001, +0.00000000000E+000
+3.83750000000E+004, +3.54297972876E+001, +0.00000000000E+000
+3.85000000000E+004, +3.55465209504E+001, +0.00000000000E+000
+3.86250000000E+004, +3.56572405710E+001, +0.00000000000E+000
+3.87500000000E+004, +3.57764471029E+001, +0.00000000000E+000
+3.88750000000E+004, +3.58892090755E+001, +0.00000000000E+000
+3.90000000000E+004, +3.60029807275E+001, +0.00000000000E+000
+3.91250000000E+004, +3.61172018783E+001, +0.00000000000E+000
+3.92500000000E+004, +3.62350385540E+001, +0.00000000000E+000
+3.93750000000E+004, +3.63484015719E+001, +0.00000000000E+000
+3.95000000000E+004, +3.64635877561E+001, +0.00000000000E+000
+3.96250000000E+004, +3.65805660395E+001, +0.00000000000E+000
+3.97500000000E+004, +3.66972463094E+001, +0.00000000000E+000
+3.98750000000E+004, +3.68100144816E+001, +0.00000000000E+000
+4.00000000000E+004, +3.69238386566E+001, +0.00000000000E+000
+4.01250000000E+004, +3.70401182023E+001, +0.00000000000E+000
+4.02500000000E+004, +3.71549327660E+001, +0.00000000000E+000
+4.03750000000E+004, +3.72702471063E+001, +0.00000000000E+000
+4.05000000000E+004, +3.73846626117E+001, +0.00000000000E+000
+4.06250000000E+004, +3.75003241333E+001, +0.00000000000E+000
+4.07500000000E+004, +3.76141158914E+001, +0.00000000000E+000
+4.08750000000E+004, +3.77298723094E+001, +0.00000000000E+000
+4.10000000000E+004, +3.78441747674E+001, +0.00000000000E+000
+4.11250000000E+004, +3.79583673341E+001, +0.00000000000E+000
+4.12500000000E+004, +3.80752314871E+001, +0.00000000000E+000
+4.13750000000E+004, +3.81894556050E+001, +0.00000000000E+000
+4.15000000000E+004, +3.83037731640E+001, +0.00000000000E+000
+4.16250000000E+004, +3.84202289582E+001, +0.00000000000E+000
+4.17500000000E+004, +3.85369982831E+001, +0.00000000000E+000
+4.18750000000E+004, +3.86500598214E+001, +0.00000000000E+000
+4.20000000000E+004, +3.87669946072E+001, +0.00000000000E+000
+4.21250000000E+004, +3.88781016012E+001, +0.00000000000E+000
+4.22500000000E+004, +3.89950316013E+001, +0.00000000000E+000
+4.23750000000E+004, +3.91115243877E+001, +0.00000000000E+000
+4.25000000000E+004, +3.92244844927E+001, +0.00000000000E+000
+4.26250000000E+004, +3.93384954973E+001, +0.00000000000E+000
+4.27500000000E+004, +3.94581398450E+001, +0.00000000000E+000
+4.28750000000E+004, +3.95711872145E+001, +0.00000000000E+000
+4.30000000000E+004, +3.96853122324E+001, +0.00000000000E+000
+4.31250000000E+004, +3.98008071451E+001, +0.00000000000E+000
+4.32500000000E+004, +3.99160073666E+001, +0.00000000000E+000
+4.33750000000E+004, +4.00300850191E+001, +0.00000000000E+000
+4.35000000000E+004, +4.01458143468E+001, +0.00000000000E+000
+4.36250000000E+004, +4.02606252617E+001, +0.00000000000E+000
+4.37500000000E+004, +4.03787703997E+001, +0.00000000000E+000
+4.38750000000E+004, +4.04916628664E+001, +0.00000000000E+000
+4.40000000000E+004, +4.06059766647E+001, +0.00000000000E+000
+4.41250000000E+004, +4.07227195292E+001, +0.00000000000E+000
+4.42500000000E+004, +4.08390806019E+001, +0.00000000000E+000
+4.43750000000E+004, +4.09513010973E+001, +0.00000000000E+000
+4.45000000000E+004, +4.10665719635E+001, +0.00000000000E+000
+4.46250000000E+004, +4.11842884845E+001, +0.00000000000E+000
+4.47500000000E+004, +4.13001753762E+001, +0.00000000000E+000
+4.48750000000E+004, +4.14127194928E+001, +0.00000000000E+000
+4.50000000000E+004, +4.15274691437E+001, +0.00000000000E+000
+4.51250000000E+004, +4.16454229458E+001, +0.00000000000E+000
+4.52500000000E+004, +4.17585169780E+001, +0.00000000000E+000
+4.53750000000E+004, +4.18758719344E+001, +0.00000000000E+000
+4.55000000000E+004, +4.19884407910E+001, +0.00000000000E+000
+4.56250000000E+004, +4.21024763740E+001, +0.00000000000E+000
+4.57500000000E+004, +4.22163504287E+001, +0.00000000000E+000
+4.58750000000E+004, +4.23325752240E+001, +0.00000000000E+000
+4.60000000000E+004, +4.24485156942E+001, +0.00000000000E+000
+4.61250000000E+004, +4.25628259763E+001, +0.00000000000E+000
+4.62500000000E+004, +4.26787720504E+001, +0.00000000000E+000
+4.63750000000E+004, +4.27935300556E+001, +0.00000000000E+000
+4.65000000000E+004, +4.29112086683E+001, +0.00000000000E+000
+4.66250000000E+004, +4.30240513455E+001, +0.00000000000E+000
+4.67500000000E+004, +4.31389100596E+001, +0.00000000000E+000
+4.68750000000E+004, +4.32539046327E+001, +0.00000000000E+000
+4.70000000000E+004, +4.33713877371E+001, +0.00000000000E+000
+4.71250000000E+004, +4.34890223411E+001, +0.00000000000E+000
+4.72500000000E+004, +4.35977498874E+001, +0.00000000000E+000
+4.73750000000E+004, +4.37164349820E+001, +0.00000000000E+000
+4.75000000000E+004, +4.38303610633E+001, +0.00000000000E+000
+4.76250000000E+004, +4.39439046967E+001, +0.00000000000E+000
+4.77500000000E+004, +4.40621942595E+001, +0.00000000000E+000
+4.78750000000E+004, +4.41758495737E+001, +0.00000000000E+000
+4.80000000000E+004, +4.42930695803E+001, +0.00000000000E+000
+4.81250000000E+004, +4.44069365648E+001, +0.00000000000E+000
+4.82500000000E+004, +4.45203953099E+001, +0.00000000000E+000
+4.83750000000E+004, +4.46383578671E+001, +0.00000000000E+000
+4.85000000000E+004, +4.47548145316E+001, +0.00000000000E+000
+4.86250000000E+004, +4.48655951147E+001, +0.00000000000E+000
+4.87500000000E+004, +4.49814184920E+001, +0.00000000000E+000
+4.88750000000E+004, +4.50992372100E+001, +0.00000000000E+000
+4.90000000000E+004, +4.52137598185E+001, +0.00000000000E+000
+4.91250000000E+004, +4.53278857278E+001, +0.00000000000E+000
+4.92500000000E+004, +4.54422076956E+001, +0.00000000000E+000
+4.93750000000E+004, +4.55549639675E+001, +0.00000000000E+000
+4.95000000000E+004, +4.56740679162E+001, +0.00000000000E+000
+4.96250000000E+004, +4.57911849433E+001, +0.00000000000E+000
+4.97500000000E+004, +4.59015302162E+001, +0.00000000000E+000
+4.98750000000E+004, +4.60194950655E+001, +0.00000000000E+000
+5.00000000000E+004, +4.61305466155E+001, +0.00000000000E+000
