Frequency, Formatted Data, Formatted Data
+1.00000000000E+003, +6.28118094664E+004, +0.00000000000E+000
+1.99500000000E+003, +3.31651614943E+004, +0.00000000000E+000
+2.99000000000E+003, +2.19240510169E+004, +0.00000000000E+000
+3.98500000000E+003, +1.64635196844E+004, +0.00000000000E+000
+4.98000000000E+003, +1.31886801329E+004, +0.00000000000E+000
+5.97500000000E+003, +1.10205131694E+004, +0.00000000000E+000
+6.97000000000E+003, +9.42977322593E+003, +0.00000000000E+000
+7.96500000000E+003, +8.26047462301E+003, +0.00000000000E+000
+8.96000000000E+003, +7.34476849299E+003, +0.00000000000E+000
+9.95500000000E+003, +6.58653776549E+003, +0.00000000000E+000
+1.09500000000E+004, +5.99913295618E+003, +0.00000000000E+000
+1.19450000000E+004, +5.49320810515E+003, +0.00000000000E+000
+1.29400000000E+004, +5.05530804164E+003, +0.00000000000E+000
+1.39350000000E+004, +4.68054989504E+003, +0.00000000000E+000
+1.49300000000E+004, +4.35940256190E+003, +0.00000000000E+000
+1.59250000000E+004, +4.08415492007E+003, +0.00000000000E+000
+1.69200000000E+004, +3.81840068055E+003, +0.00000000000E+000
+1.79150000000E+004, +3.60110760165E+003, +0.00000000000E+000
+1.89100000000E+004, +3.39657612491E+003, +0.00000000000E+000
+1.99050000000E+004, +3.20996466157E+003, +0.00000000000E+000
+2.09000000000E+004, +3.04660795270E+003, +0.00000000000E+000
+2.18950000000E+004, +2.89677486905E+003, +0.00000000000E+000
+2.28900000000E+004, +2.74922052824E+003, +0.00000000000E+000
+2.38850000000E+004, +2.61553370720E+003, +0.00000000000E+000
+2.48800000000E+004, +2.48237902785E+003, +0.00000000000E+000
+2.58750000000E+004, +2.39697676629E+003, +0.00000000000E+000
+2.68700000000E+004, +2.27365556629E+003, +0.00000000000E+000
+2.78650000000E+004, +2.15995470425E+003, +0.00000000000E+000
+2.88600000000E+004, +2.05907483823E+003, +0.00000000000E+000
+2.98550000000E+004, +1.95643447468E+003, +0.00000000000E+000
+3.08500000000E+004, +1.85540263610E+003, +0.00000000000E+000
+3.18450000000E+004, +1.75676700580E+003, +0.00000000000E+000
+3.28400000000E+004, +1.65703854916E+003, +0.00000000000E+000
+3.38350000000E+004, +1.55148615967E+003, +0.00000000000E+000
+3.48300000000E+004, +1.43702668843E+003, +0.00000000000E+000
+3.58250000000E+004, +1.30181354726E+003, +0.00000000000E+000
+3.68200000000E+004, +1.14789670264E+003, +0.00000000000E+000
+3.78150000000E+004, +9.66180485343E+002, +0.00000000000E+000
+3.88100000000E+004, +7.19779359862E+002, +0.00000000000E+000
+3.98050000000E+004, +4.12910900874E+002, +0.00000000000E+000
+4.08000000000E+004, +1.60727848228E+003, +0.00000000000E+000
+4.17950000000E+004, +7.31900819785E+003, +0.00000000000E+000
+4.27900000000E+004, +3.30611104253E+003, +0.00000000000E+000
+4.37850000000E+004, +2.36932887026E+003, +0.00000000000E+000
+4.47800000000E+004, +1.96309702581E+003, +0.00000000000E+000
+4.57750000000E+004, +1.71384393271E+003, +0.00000000000E+000
+4.67700000000E+004, +1.52612593078E+003, +0.00000000000E+000
+4.77650000000E+004, +1.36234762210E+003, +0.00000000000E+000
+4.87600000000E+004, +1.20167132926E+003, +0.00000000000E+000
+4.97550000000E+004, +1.02535300984E+003, +0.00000000000E+000
+5.07500000000E+004, +8.05447352895E+002, +0.00000000000E+000
+5.17450000000E+004, +4.88024782009E+002, +0.00000000000E+000
+5.27400000000E+004, +4.40132508284E+002, +0.00000000000E+000
+5.37350000000E+004, +1.84448177622E+003, +0.00000000000E+000
+5.47300000000E+004, +1.46638763977E+003, +0.00000000000E+000
+5.57250000000E+004, +6.32816042893E+003, +0.00000000000E+000
+5.67200000000E+004, +4.48338554070E+003, +0.00000000000E+000
+5.77150000000E+004, +3.03477235716E+003, +0.00000000000E+000
+5.87100000000E+004, +2.41837900024E+003, +0.00000000000E+000
+5.97050000000E+004, +2.18000056424E+003, +0.00000000000E+000
+6.07000000000E+004, +2.07435355610E+003, +0.00000000000E+000
+6.16950000000E+004, +1.89234404462E+003, +0.00000000000E+000
+6.26900000000E+004, +1.76893597381E+003, +0.00000000000E+000
+6.36850000000E+004, +1.67605998858E+003, +0.00000000000E+000
+6.46800000000E+004, +1.59998808853E+003, +0.00000000000E+000
+6.56750000000E+004, +1.53621064209E+003, +0.00000000000E+000
+6.66700000000E+004, +1.48091919866E+003, +0.00000000000E+000
+6.76650000000E+004, +1.43297075952E+003, +0.00000000000E+000
+6.86600000000E+004, +1.39213654532E+003, +0.00000000000E+000
+6.96550000000E+004, +1.35280417726E+003, +0.00000000000E+000
+7.06500000000E+004, +1.31748079673E+003, +0.00000000000E+000
+7.16450000000E+004, +1.28511969538E+003, +0.00000000000E+000
+7.26400000000E+004, +1.25493120020E+003, +0.00000000000E+000
+7.36350000000E+004, +1.22615933564E+003, +0.00000000000E+000
+7.46300000000E+004, +1.20009282117E+003, +0.00000000000E+000
+7.56250000000E+004, +1.17462870762E+003, +0.00000000000E+000
+7.66200000000E+004, +1.15118399877E+003, +0.00000000000E+000
+7.76150000000E+004, +1.12857684896E+003, +0.00000000000E+000
+7.86100000000E+004, +1.10657757533E+003, +0.00000000000E+000
+7.96050000000E+004, +1.08777842440E+003, +0.00000000000E+000
+8.06000000000E+004, +1.07124092728E+003, +0.00000000000E+000
+8.15950000000E+004, +1.05155400871E+003, +0.00000000000E+000
+8.25900000000E+004, +1.03683353940E+003, +0.00000000000E+000
+8.35850000000E+004, +1.01820614643E+003, +0.00000000000E+000
+8.45800000000E+004, +1.00137373858E+003, +0.00000000000E+000
+8.55750000000E+004, +9.90086763145E+002, +0.00000000000E+000
+8.65700000000E+004, +9.78489113320E+002, +0.00000000000E+000
+8.75650000000E+004, +9.62895412098E+002, +0.00000000000E+000
+8.85600000000E+004, +9.47042541598E+002, +0.00000000000E+000
+8.95550000000E+004, +9.32192312373E+002, +0.00000000000E+000
+9.05500000000E+004, +9.18434094588E+002, +0.00000000000E+000
+9.15450000000E+004, +9.04435072610E+002, +0.00000000000E+000
+9.25400000000E+004, +8.90770744004E+002, +0.00000000000E+000
+9.35350000000E+004, +8.77334757956E+002, +0.00000000000E+000
+9.45300000000E+004, +8.64450275908E+002, +0.00000000000E+000
+9.55250000000E+004, +8.51318335397E+002, +0.00000000000E+000
+9.65200000000E+004, +8.40724604318E+002, +0.00000000000E+000
+9.75150000000E+004, +8.30304299356E+002, +0.00000000000E+000
+9.85100000000E+004, +8.21400463229E+002, +0.00000000000E+000
+9.95050000000E+004, +8.11570711669E+002, +0.00000000000E+000
+1.00500000000E+005, +7.97389779601E+002, +0.00000000000E+000
+1.01495000000E+005, +7.80739761544E+002, +0.00000000000E+000
+1.02490000000E+005, +7.65009902514E+002, +0.00000000000E+000
+1.03485000000E+005, +7.68915921082E+002, +0.00000000000E+000
+1.04480000000E+005, +7.93367409976E+002, +0.00000000000E+000
+1.05475000000E+005, +7.92063978629E+002, +0.00000000000E+000
+1.06470000000E+005, +7.80157037640E+002, +0.00000000000E+000
+1.07465000000E+005, +7.68608266577E+002, +0.00000000000E+000
+1.08460000000E+005, +7.57606083216E+002, +0.00000000000E+000
+1.09455000000E+005, +7.46788147877E+002, +0.00000000000E+000
+1.10450000000E+005, +7.35962759085E+002, +0.00000000000E+000
+1.11445000000E+005, +7.25503262050E+002, +0.00000000000E+000
+1.12440000000E+005, +7.15598546566E+002, +0.00000000000E+000
+1.13435000000E+005, +7.06700856441E+002, +0.00000000000E+000
+1.14430000000E+005, +6.98299383665E+002, +0.00000000000E+000
+1.15425000000E+005, +6.88950578928E+002, +0.00000000000E+000
+1.16420000000E+005, +6.79529360870E+002, +0.00000000000E+000
+1.17415000000E+005, +6.69549011239E+002, +0.00000000000E+000
+1.18410000000E+005, +6.59088865345E+002, +0.00000000000E+000
+1.19405000000E+005, +6.48705329927E+002, +0.00000000000E+000
+1.20400000000E+005, +6.45561604204E+002, +0.00000000000E+000
+1.21395000000E+005, +6.61945369294E+002, +0.00000000000E+000
+1.22390000000E+005, +6.65474554701E+002, +0.00000000000E+000
+1.23385000000E+005, +6.56219665737E+002, +0.00000000000E+000
+1.24380000000E+005, +6.46261830053E+002, +0.00000000000E+000
+1.25375000000E+005, +6.37333989840E+002, +0.00000000000E+000
+1.26370000000E+005, +6.29305912780E+002, +0.00000000000E+000
+1.27365000000E+005, +6.21741950619E+002, +0.00000000000E+000
+1.28360000000E+005, +6.14577275838E+002, +0.00000000000E+000
+1.29355000000E+005, +6.07725467617E+002, +0.00000000000E+000
+1.30350000000E+005, +6.01050936634E+002, +0.00000000000E+000
+1.31345000000E+005, +5.94903726971E+002, +0.00000000000E+000
+1.32340000000E+005, +5.88810663968E+002, +0.00000000000E+000
+1.33335000000E+005, +5.82914777430E+002, +0.00000000000E+000
+1.34330000000E+005, +5.76910091203E+002, +0.00000000000E+000
+1.35325000000E+005, +5.70847429916E+002, +0.00000000000E+000
+1.36320000000E+005, +5.64752962702E+002, +0.00000000000E+000
+1.37315000000E+005, +5.58485081775E+002, +0.00000000000E+000
+1.38310000000E+005, +5.52624360910E+002, +0.00000000000E+000
+1.39305000000E+005, +5.46526200670E+002, +0.00000000000E+000
+1.40300000000E+005, +5.40320312113E+002, +0.00000000000E+000
+1.41295000000E+005, +5.33850190751E+002, +0.00000000000E+000
+1.42290000000E+005, +5.26704584303E+002, +0.00000000000E+000
+1.43285000000E+005, +5.19238037533E+002, +0.00000000000E+000
+1.44280000000E+005, +5.22620269478E+002, +0.00000000000E+000
+1.45275000000E+005, +5.26161117286E+002, +0.00000000000E+000
+1.46270000000E+005, +5.18940770523E+002, +0.00000000000E+000
+1.47265000000E+005, +5.13035156879E+002, +0.00000000000E+000
+1.48260000000E+005, +5.06135765236E+002, +0.00000000000E+000
+1.49255000000E+005, +4.99862916409E+002, +0.00000000000E+000
+1.50250000000E+005, +4.93741152012E+002, +0.00000000000E+000
+1.51245000000E+005, +4.87811329091E+002, +0.00000000000E+000
+1.52240000000E+005, +4.81797012578E+002, +0.00000000000E+000
+1.53235000000E+005, +4.75644287161E+002, +0.00000000000E+000
+1.54230000000E+005, +4.69270090756E+002, +0.00000000000E+000
+1.55225000000E+005, +4.62627925385E+002, +0.00000000000E+000
+1.56220000000E+005, +4.55599239570E+002, +0.00000000000E+000
+1.57215000000E+005, +4.48090717439E+002, +0.00000000000E+000
+1.58210000000E+005, +4.39560256913E+002, +0.00000000000E+000
+1.59205000000E+005, +4.29281192385E+002, +0.00000000000E+000
+1.60200000000E+005, +4.16060739375E+002, +0.00000000000E+000
+1.61195000000E+005, +3.99378922409E+002, +0.00000000000E+000
+1.62190000000E+005, +3.85747715433E+002, +0.00000000000E+000
+1.63185000000E+005, +4.28905065427E+002, +0.00000000000E+000
+1.64180000000E+005, +5.26245399985E+002, +0.00000000000E+000
+1.65175000000E+005, +5.23464190718E+002, +0.00000000000E+000
+1.66170000000E+005, +5.01570153358E+002, +0.00000000000E+000
+1.67165000000E+005, +4.84295155266E+002, +0.00000000000E+000
+1.68160000000E+005, +4.71424336498E+002, +0.00000000000E+000
+1.69155000000E+005, +4.61349615379E+002, +0.00000000000E+000
+1.70150000000E+005, +4.52972490470E+002, +0.00000000000E+000
+1.71145000000E+005, +4.45726387896E+002, +0.00000000000E+000
+1.72140000000E+005, +4.39194448837E+002, +0.00000000000E+000
+1.73135000000E+005, +4.33297071188E+002, +0.00000000000E+000
+1.74130000000E+005, +4.27653883884E+002, +0.00000000000E+000
+1.75125000000E+005, +4.22421506428E+002, +0.00000000000E+000
+1.76120000000E+005, +4.17310551892E+002, +0.00000000000E+000
+1.77115000000E+005, +4.12487424906E+002, +0.00000000000E+000
+1.78110000000E+005, +4.07686582588E+002, +0.00000000000E+000
+1.79105000000E+005, +4.02938597929E+002, +0.00000000000E+000
+1.80100000000E+005, +3.98227726617E+002, +0.00000000000E+000
+1.81095000000E+005, +3.93395505525E+002, +0.00000000000E+000
+1.82090000000E+005, +3.88592671644E+002, +0.00000000000E+000
+1.83085000000E+005, +3.84354130631E+002, +0.00000000000E+000
+1.84080000000E+005, +3.80017711568E+002, +0.00000000000E+000
+1.85075000000E+005, +3.75588176963E+002, +0.00000000000E+000
+1.86070000000E+005, +3.71298669710E+002, +0.00000000000E+000
+1.87065000000E+005, +3.67354021270E+002, +0.00000000000E+000
+1.88060000000E+005, +3.64248295602E+002, +0.00000000000E+000
+1.89055000000E+005, +3.59333561366E+002, +0.00000000000E+000
+1.90050000000E+005, +3.54008264223E+002, +0.00000000000E+000
+1.91045000000E+005, +3.48742492491E+002, +0.00000000000E+000
+1.92040000000E+005, +3.43253357936E+002, +0.00000000000E+000
+1.93035000000E+005, +3.37328786724E+002, +0.00000000000E+000
+1.94030000000E+005, +3.30542596490E+002, +0.00000000000E+000
+1.95025000000E+005, +3.23053480196E+002, +0.00000000000E+000
+1.96020000000E+005, +3.20460846228E+002, +0.00000000000E+000
+1.97015000000E+005, +3.38154974873E+002, +0.00000000000E+000
+1.98010000000E+005, +3.40445738803E+002, +0.00000000000E+000
+1.99005000000E+005, +3.32898099505E+002, +0.00000000000E+000
+2.00000000000E+005, +3.25576039192E+002, +0.00000000000E+000
