Frequency, Formatted Data, Formatted Data
+2.50000000000E+004, +3.53721274878E+001, +0.00000000000E+000
+2.51250000000E+004, +3.55567176406E+001, +0.00000000000E+000
+2.52500000000E+004, +3.57362190943E+001, +0.00000000000E+000
+2.53750000000E+004, +3.59125901082E+001, +0.00000000000E+000
+2.55000000000E+004, +3.60918299097E+001, +0.00000000000E+000
+2.56250000000E+004, +3.62697897381E+001, +0.00000000000E+000
+2.57500000000E+004, +3.64473961321E+001, +0.00000000000E+000
+2.58750000000E+004, +3.66227933612E+001, +0.00000000000E+000
+2.60000000000E+004, +3.68004040636E+001, +0.00000000000E+000
+2.61250000000E+004, +3.69766614498E+001, +0.00000000000E+000
+2.62500000000E+004, +3.71540567335E+001, +0.00000000000E+000
+2.63750000000E+004, +3.73345992824E+001, +0.00000000000E+000
+2.65000000000E+004, +3.75124123356E+001, +0.00000000000E+000
+2.66250000000E+004, +3.76867779177E+001, +0.00000000000E+000
+2.67500000000E+004, +3.78645104564E+001, +0.00000000000E+000
+2.68750000000E+004, +3.80440921552E+001, +0.00000000000E+000
+2.70000000000E+004, +3.82198426149E+001, +0.00000000000E+000
+2.71250000000E+004, +3.83979087949E+001, +0.00000000000E+000
+2.72500000000E+004, +3.85717263006E+001, +0.00000000000E+000
+2.73750000000E+004, +3.87518729289E+001, +0.00000000000E+000
+2.75000000000E+004, +3.89286801914E+001, +0.00000000000E+000
+2.76250000000E+004, +3.91053242584E+001, +0.00000000000E+000
+2.77500000000E+004, +3.92850273595E+001, +0.00000000000E+000
+2.78750000000E+004, +3.94617595464E+001, +0.00000000000E+000
+2.80000000000E+004, +3.96381804288E+001, +0.00000000000E+000
+2.81250000000E+004, +3.98170615063E+001, +0.00000000000E+000
+2.82500000000E+004, +3.99899189962E+001, +0.00000000000E+000
+2.83750000000E+004, +4.01685221209E+001, +0.00000000000E+000
+2.85000000000E+004, +4.03472183024E+001, +0.00000000000E+000
+2.86250000000E+004, +4.05218461994E+001, +0.00000000000E+000
+2.87500000000E+004, +4.07000401875E+001, +0.00000000000E+000
+2.88750000000E+004, +4.08764848223E+001, +0.00000000000E+000
+2.90000000000E+004, +4.10565286348E+001, +0.00000000000E+000
+2.91250000000E+004, +4.12332979471E+001, +0.00000000000E+000
+2.92500000000E+004, +4.14115263787E+001, +0.00000000000E+000
+2.93750000000E+004, +4.15877371199E+001, +0.00000000000E+000
+2.95000000000E+004, +4.17646150969E+001, +0.00000000000E+000
+2.96250000000E+004, +4.19421051307E+001, +0.00000000000E+000
+2.97500000000E+004, +4.21216748123E+001, +0.00000000000E+000
+2.98750000000E+004, +4.22986376157E+001, +0.00000000000E+000
+3.00000000000E+004, +4.24777998441E+001, +0.00000000000E+000
+3.01250000000E+004, +4.26485747000E+001, +0.00000000000E+000
+3.02500000000E+004, +4.28284999505E+001, +0.00000000000E+000
+3.03750000000E+004, +4.30031801996E+001, +0.00000000000E+000
+3.05000000000E+004, +4.31800275667E+001, +0.00000000000E+000
+3.06250000000E+004, +4.33560299732E+001, +0.00000000000E+000
+3.07500000000E+004, +4.35305545545E+001, +0.00000000000E+000
+3.08750000000E+004, +4.37076614162E+001, +0.00000000000E+000
+3.10000000000E+004, +4.38823389737E+001, +0.00000000000E+000
+3.11250000000E+004, +4.40597652272E+001, +0.00000000000E+000
+3.12500000000E+004, +4.42378725687E+001, +0.00000000000E+000
+3.13750000000E+004, +4.44108883838E+001, +0.00000000000E+000
+3.15000000000E+004, +4.45894682406E+001, +0.00000000000E+000
+3.16250000000E+004, +4.47599262403E+001, +0.00000000000E+000
+3.17500000000E+004, +4.49375674364E+001, +0.00000000000E+000
+3.18750000000E+004, +4.51148713608E+001, +0.00000000000E+000
+3.20000000000E+004, +4.52901446971E+001, +0.00000000000E+000
+3.21250000000E+004, +4.54667091809E+001, +0.00000000000E+000
+3.22500000000E+004, +4.56436970726E+001, +0.00000000000E+000
+3.23750000000E+004, +4.58172945706E+001, +0.00000000000E+000
+3.25000000000E+004, +4.59933952834E+001, +0.00000000000E+000
+3.26250000000E+004, +4.61696863467E+001, +0.00000000000E+000
+3.27500000000E+004, +4.63481169811E+001, +0.00000000000E+000
+3.28750000000E+004, +4.65242734314E+001, +0.00000000000E+000
+3.30000000000E+004, +4.66997229909E+001, +0.00000000000E+000
+3.31250000000E+004, +4.68753071155E+001, +0.00000000000E+000
+3.32500000000E+004, +4.70522810139E+001, +0.00000000000E+000
+3.33750000000E+004, +4.72254114508E+001, +0.00000000000E+000
+3.35000000000E+004, +4.74040289529E+001, +0.00000000000E+000
+3.36250000000E+004, +4.75794340178E+001, +0.00000000000E+000
+3.37500000000E+004, +4.77540633836E+001, +0.00000000000E+000
+3.38750000000E+004, +4.79326367772E+001, +0.00000000000E+000
+3.40000000000E+004, +4.81079357365E+001, +0.00000000000E+000
+3.41250000000E+004, +4.82833806178E+001, +0.00000000000E+000
+3.42500000000E+004, +4.84618866603E+001, +0.00000000000E+000
+3.43750000000E+004, +4.86353312031E+001, +0.00000000000E+000
+3.45000000000E+004, +4.88104052914E+001, +0.00000000000E+000
+3.46250000000E+004, +4.89884004608E+001, +0.00000000000E+000
+3.47500000000E+004, +4.91614584803E+001, +0.00000000000E+000
+3.48750000000E+004, +4.93412876191E+001, +0.00000000000E+000
+3.50000000000E+004, +4.95188728813E+001, +0.00000000000E+000
+3.51250000000E+004, +4.96926662163E+001, +0.00000000000E+000
+3.52500000000E+004, +4.98693406302E+001, +0.00000000000E+000
+3.53750000000E+004, +5.00461115913E+001, +0.00000000000E+000
+3.55000000000E+004, +5.02217295373E+001, +0.00000000000E+000
+3.56250000000E+004, +5.04001839554E+001, +0.00000000000E+000
+3.57500000000E+004, +5.05741282275E+001, +0.00000000000E+000
+3.58750000000E+004, +5.07498977454E+001, +0.00000000000E+000
+3.60000000000E+004, +5.09286085188E+001, +0.00000000000E+000
+3.61250000000E+004, +5.11002508971E+001, +0.00000000000E+000
+3.62500000000E+004, +5.12806402412E+001, +0.00000000000E+000
+3.63750000000E+004, +5.14539568957E+001, +0.00000000000E+000
+3.65000000000E+004, +5.16307936780E+001, +0.00000000000E+000
+3.66250000000E+004, +5.18061180686E+001, +0.00000000000E+000
+3.67500000000E+004, +5.19845321916E+001, +0.00000000000E+000
+3.68750000000E+004, +5.21592071878E+001, +0.00000000000E+000
+3.70000000000E+004, +5.23332029585E+001, +0.00000000000E+000
+3.71250000000E+004, +5.25091244553E+001, +0.00000000000E+000
+3.72500000000E+004, +5.26839754926E+001, +0.00000000000E+000
+3.73750000000E+004, +5.28631353683E+001, +0.00000000000E+000
+3.75000000000E+004, +5.30380777210E+001, +0.00000000000E+000
+3.76250000000E+004, +5.32123961818E+001, +0.00000000000E+000
+3.77500000000E+004, +5.33899691000E+001, +0.00000000000E+000
+3.78750000000E+004, +5.35651225826E+001, +0.00000000000E+000
+3.80000000000E+004, +5.37446816310E+001, +0.00000000000E+000
+3.81250000000E+004, +5.39200773476E+001, +0.00000000000E+000
+3.82500000000E+004, +5.40964279927E+001, +0.00000000000E+000
+3.83750000000E+004, +5.42746571209E+001, +0.00000000000E+000
+3.85000000000E+004, +5.44479102604E+001, +0.00000000000E+000
+3.86250000000E+004, +5.46241007067E+001, +0.00000000000E+000
+3.87500000000E+004, +5.47975182530E+001, +0.00000000000E+000
+3.88750000000E+004, +5.49752919287E+001, +0.00000000000E+000
+3.90000000000E+004, +5.51525651959E+001, +0.00000000000E+000
+3.91250000000E+004, +5.53296539949E+001, +0.00000000000E+000
+3.92500000000E+004, +5.55034936799E+001, +0.00000000000E+000
+3.93750000000E+004, +5.56789886739E+001, +0.00000000000E+000
+3.95000000000E+004, +5.58548276812E+001, +0.00000000000E+000
+3.96250000000E+004, +5.60338824263E+001, +0.00000000000E+000
+3.97500000000E+004, +5.62082236059E+001, +0.00000000000E+000
+3.98750000000E+004, +5.63883975037E+001, +0.00000000000E+000
+4.00000000000E+004, +5.65618033090E+001, +0.00000000000E+000
+4.01250000000E+004, +5.67407328769E+001, +0.00000000000E+000
+4.02500000000E+004, +5.69176082022E+001, +0.00000000000E+000
+4.03750000000E+004, +5.70902886565E+001, +0.00000000000E+000
+4.05000000000E+004, +5.72647940663E+001, +0.00000000000E+000
+4.06250000000E+004, +5.74409404569E+001, +0.00000000000E+000
+4.07500000000E+004, +5.76189000989E+001, +0.00000000000E+000
+4.08750000000E+004, +5.77965792493E+001, +0.00000000000E+000
+4.10000000000E+004, +5.79712581455E+001, +0.00000000000E+000
+4.11250000000E+004, +5.81477534556E+001, +0.00000000000E+000
+4.12500000000E+004, +5.83198397637E+001, +0.00000000000E+000
+4.13750000000E+004, +5.85010672852E+001, +0.00000000000E+000
+4.15000000000E+004, +5.86756746661E+001, +0.00000000000E+000
+4.16250000000E+004, +5.88503835484E+001, +0.00000000000E+000
+4.17500000000E+004, +5.90318654287E+001, +0.00000000000E+000
+4.18750000000E+004, +5.92033398846E+001, +0.00000000000E+000
+4.20000000000E+004, +5.93792928562E+001, +0.00000000000E+000
+4.21250000000E+004, +5.95548961960E+001, +0.00000000000E+000
+4.22500000000E+004, +5.97311844346E+001, +0.00000000000E+000
+4.23750000000E+004, +5.99094121346E+001, +0.00000000000E+000
+4.25000000000E+004, +6.00833053929E+001, +0.00000000000E+000
+4.26250000000E+004, +6.02607619582E+001, +0.00000000000E+000
+4.27500000000E+004, +6.04375971860E+001, +0.00000000000E+000
+4.28750000000E+004, +6.06144744262E+001, +0.00000000000E+000
+4.30000000000E+004, +6.07869920633E+001, +0.00000000000E+000
+4.31250000000E+004, +6.09679213734E+001, +0.00000000000E+000
+4.32500000000E+004, +6.11439401005E+001, +0.00000000000E+000
+4.33750000000E+004, +6.13198566157E+001, +0.00000000000E+000
+4.35000000000E+004, +6.14948989275E+001, +0.00000000000E+000
+4.36250000000E+004, +6.16733805254E+001, +0.00000000000E+000
+4.37500000000E+004, +6.18474173528E+001, +0.00000000000E+000
+4.38750000000E+004, +6.20203532379E+001, +0.00000000000E+000
+4.40000000000E+004, +6.21979852299E+001, +0.00000000000E+000
+4.41250000000E+004, +6.23743298695E+001, +0.00000000000E+000
+4.42500000000E+004, +6.25528066840E+001, +0.00000000000E+000
+4.43750000000E+004, +6.27289721894E+001, +0.00000000000E+000
+4.45000000000E+004, +6.29037614810E+001, +0.00000000000E+000
+4.46250000000E+004, +6.30826832365E+001, +0.00000000000E+000
+4.47500000000E+004, +6.32579750014E+001, +0.00000000000E+000
+4.48750000000E+004, +6.34326572838E+001, +0.00000000000E+000
+4.50000000000E+004, +6.36069832346E+001, +0.00000000000E+000
+4.51250000000E+004, +6.37891146208E+001, +0.00000000000E+000
+4.52500000000E+004, +6.39609378089E+001, +0.00000000000E+000
+4.53750000000E+004, +6.41404346926E+001, +0.00000000000E+000
+4.55000000000E+004, +6.43122093803E+001, +0.00000000000E+000
+4.56250000000E+004, +6.44912349106E+001, +0.00000000000E+000
+4.57500000000E+004, +6.46714715948E+001, +0.00000000000E+000
+4.58750000000E+004, +6.48432597905E+001, +0.00000000000E+000
+4.60000000000E+004, +6.50204683380E+001, +0.00000000000E+000
+4.61250000000E+004, +6.51911873208E+001, +0.00000000000E+000
+4.62500000000E+004, +6.53761413610E+001, +0.00000000000E+000
+4.63750000000E+004, +6.55464450340E+001, +0.00000000000E+000
+4.65000000000E+004, +6.57215864636E+001, +0.00000000000E+000
+4.66250000000E+004, +6.59034505719E+001, +0.00000000000E+000
+4.67500000000E+004, +6.60778630004E+001, +0.00000000000E+000
+4.68750000000E+004, +6.62560228827E+001, +0.00000000000E+000
+4.70000000000E+004, +6.64302044848E+001, +0.00000000000E+000
+4.71250000000E+004, +6.66076650016E+001, +0.00000000000E+000
+4.72500000000E+004, +6.67810411836E+001, +0.00000000000E+000
+4.73750000000E+004, +6.69598999375E+001, +0.00000000000E+000
+4.75000000000E+004, +6.71395162903E+001, +0.00000000000E+000
+4.76250000000E+004, +6.73109836902E+001, +0.00000000000E+000
+4.77500000000E+004, +6.74853331874E+001, +0.00000000000E+000
+4.78750000000E+004, +6.76652345421E+001, +0.00000000000E+000
+4.80000000000E+004, +6.78437024864E+001, +0.00000000000E+000
+4.81250000000E+004, +6.80173198453E+001, +0.00000000000E+000
+4.82500000000E+004, +6.81963015972E+001, +0.00000000000E+000
+4.83750000000E+004, +6.83685425573E+001, +0.00000000000E+000
+4.85000000000E+004, +6.85456147472E+001, +0.00000000000E+000
+4.86250000000E+004, +6.87216399537E+001, +0.00000000000E+000
+4.87500000000E+004, +6.89002153372E+001, +0.00000000000E+000
+4.88750000000E+004, +6.90729439031E+001, +0.00000000000E+000
+4.90000000000E+004, +6.92551281696E+001, +0.00000000000E+000
+4.91250000000E+004, +6.94261213957E+001, +0.00000000000E+000
+4.92500000000E+004, +6.96041170134E+001, +0.00000000000E+000
+4.93750000000E+004, +6.97789656836E+001, +0.00000000000E+000
+4.95000000000E+004, +6.99564938521E+001, +0.00000000000E+000
+4.96250000000E+004, +7.01345544291E+001, +0.00000000000E+000
+4.97500000000E+004, +7.03107336393E+001, +0.00000000000E+000
+4.98750000000E+004, +7.04859712407E+001, +0.00000000000E+000
+5.00000000000E+004, +7.06613562959E+001, +0.00000000000E+000
