"# Channel 1"
"# Trace 1"
Frequency, Formatted Data, Formatted Data
+5.00000000000E+000, +8.81677119766E-001, +0.00000000000E+000
+6.04975000000E+002, +2.74256873850E+000, +0.00000000000E+000
+1.20495000000E+003, +5.15326963969E+000, +0.00000000000E+000
+1.80492500000E+003, +7.59561351602E+000, +0.00000000000E+000
+2.40490000000E+003, +1.00612813531E+001, +0.00000000000E+000
+3.00487500000E+003, +1.25231093175E+001, +0.00000000000E+000
+3.60485000000E+003, +1.49890618815E+001, +0.00000000000E+000
+4.20482500000E+003, +1.74467579090E+001, +0.00000000000E+000
+4.80480000000E+003, +1.99195080210E+001, +0.00000000000E+000
+5.40477500000E+003, +2.23775447035E+001, +0.00000000000E+000
+6.00475000000E+003, +2.48362263542E+001, +0.00000000000E+000
+6.60472500000E+003, +2.73049019674E+001, +0.00000000000E+000
+7.20470000000E+003, +2.97673473264E+001, +0.00000000000E+000
+7.80467500000E+003, +3.22199526884E+001, +0.00000000000E+000
+8.40465000000E+003, +3.46770897703E+001, +0.00000000000E+000
+9.00462500000E+003, +3.71252221814E+001, +0.00000000000E+000
+9.60460000000E+003, +3.95919314455E+001, +0.00000000000E+000
+1.02045750000E+004, +4.20378131644E+001, +0.00000000000E+000
+1.08045500000E+004, +4.44712119132E+001, +0.00000000000E+000
+1.14045250000E+004, +4.68967593665E+001, +0.00000000000E+000
+1.20045000000E+004, +4.93305021628E+001, +0.00000000000E+000
+1.26044750000E+004, +5.17641002157E+001, +0.00000000000E+000
+1.32044500000E+004, +5.41971016355E+001, +0.00000000000E+000
+1.38044250000E+004, +5.66332794190E+001, +0.00000000000E+000
+1.44044000000E+004, +5.90652124598E+001, +0.00000000000E+000
+1.50043750000E+004, +6.15036615936E+001, +0.00000000000E+000
+1.56043500000E+004, +6.39384081233E+001, +0.00000000000E+000
+1.62043250000E+004, +6.63759225525E+001, +0.00000000000E+000
+1.68043000000E+004, +6.88112290284E+001, +0.00000000000E+000
+1.74042750000E+004, +7.12511447358E+001, +0.00000000000E+000
+1.80042500000E+004, +7.36918287379E+001, +0.00000000000E+000
+1.86042250000E+004, +7.61140528007E+001, +0.00000000000E+000
+1.92042000000E+004, +7.85647976704E+001, +0.00000000000E+000
+1.98041750000E+004, +8.10038209266E+001, +0.00000000000E+000
+2.04041500000E+004, +8.34288701307E+001, +0.00000000000E+000
+2.10041250000E+004, +8.58295939005E+001, +0.00000000000E+000
+2.16041000000E+004, +8.82410951738E+001, +0.00000000000E+000
+2.22040750000E+004, +9.06409664947E+001, +0.00000000000E+000
+2.28040500000E+004, +9.30495396078E+001, +0.00000000000E+000
+2.34040250000E+004, +9.54220603296E+001, +0.00000000000E+000
+2.40040000000E+004, +9.78465028793E+001, +0.00000000000E+000
+2.46039750000E+004, +1.00244480610E+002, +0.00000000000E+000
+2.52039500000E+004, +1.02658499952E+002, +0.00000000000E+000
+2.58039250000E+004, +1.05061671004E+002, +0.00000000000E+000
+2.64039000000E+004, +1.07465008650E+002, +0.00000000000E+000
+2.70038750000E+004, +1.09872738379E+002, +0.00000000000E+000
+2.76038500000E+004, +1.12276661979E+002, +0.00000000000E+000
+2.82038250000E+004, +1.14682502359E+002, +0.00000000000E+000
+2.88038000000E+004, +1.17083307115E+002, +0.00000000000E+000
+2.94037750000E+004, +1.19481688747E+002, +0.00000000000E+000
+3.00037500000E+004, +1.21895468475E+002, +0.00000000000E+000
+3.06037250000E+004, +1.24280128674E+002, +0.00000000000E+000
+3.12037000000E+004, +1.26648993092E+002, +0.00000000000E+000
+3.18036750000E+004, +1.29037269395E+002, +0.00000000000E+000
+3.24036500000E+004, +1.31417227170E+002, +0.00000000000E+000
+3.30036250000E+004, +1.33798831603E+002, +0.00000000000E+000
+3.36036000000E+004, +1.36173724039E+002, +0.00000000000E+000
+3.42035750000E+004, +1.38555787285E+002, +0.00000000000E+000
+3.48035500000E+004, +1.40923866225E+002, +0.00000000000E+000
+3.54035250000E+004, +1.43301202183E+002, +0.00000000000E+000
+3.60035000000E+004, +1.45683151523E+002, +0.00000000000E+000
+3.66034750000E+004, +1.48056181803E+002, +0.00000000000E+000
+3.72034500000E+004, +1.50433459811E+002, +0.00000000000E+000
+3.78034250000E+004, +1.52781463269E+002, +0.00000000000E+000
+3.84034000000E+004, +1.55187874509E+002, +0.00000000000E+000
+3.90033750000E+004, +1.57555756717E+002, +0.00000000000E+000
+3.96033500000E+004, +1.59932990302E+002, +0.00000000000E+000
+4.02033250000E+004, +1.62316646551E+002, +0.00000000000E+000
+4.08033000000E+004, +1.64704370947E+002, +0.00000000000E+000
+4.14032750000E+004, +1.67068543756E+002, +0.00000000000E+000
+4.20032500000E+004, +1.69455248485E+002, +0.00000000000E+000
+4.26032250000E+004, +1.71821953570E+002, +0.00000000000E+000
+4.32032000000E+004, +1.74202543015E+002, +0.00000000000E+000
+4.38031750000E+004, +1.76568347952E+002, +0.00000000000E+000
+4.44031500000E+004, +1.78964870414E+002, +0.00000000000E+000
+4.50031250000E+004, +1.81339565927E+002, +0.00000000000E+000
+4.56031000000E+004, +1.83722090589E+002, +0.00000000000E+000
+4.62030750000E+004, +1.86065841587E+002, +0.00000000000E+000
+4.68030500000E+004, +1.88456265047E+002, +0.00000000000E+000
+4.74030250000E+004, +1.90843846384E+002, +0.00000000000E+000
+4.80030000000E+004, +1.93233994987E+002, +0.00000000000E+000
+4.86029750000E+004, +1.95613030747E+002, +0.00000000000E+000
+4.92029500000E+004, +1.97996320898E+002, +0.00000000000E+000
+4.98029250000E+004, +2.00369912659E+002, +0.00000000000E+000
+5.04029000000E+004, +2.02729744257E+002, +0.00000000000E+000
+5.10028750000E+004, +2.05123101703E+002, +0.00000000000E+000
+5.16028500000E+004, +2.07473044837E+002, +0.00000000000E+000
+5.22028250000E+004, +2.09852009490E+002, +0.00000000000E+000
+5.28028000000E+004, +2.12194597945E+002, +0.00000000000E+000
+5.34027750000E+004, +2.14577707382E+002, +0.00000000000E+000
+5.40027500000E+004, +2.16948871316E+002, +0.00000000000E+000
+5.46027250000E+004, +2.19327352445E+002, +0.00000000000E+000
+5.52027000000E+004, +2.21667654879E+002, +0.00000000000E+000
+5.58026750000E+004, +2.24045678652E+002, +0.00000000000E+000
+5.64026500000E+004, +2.26398930891E+002, +0.00000000000E+000
+5.70026250000E+004, +2.28769143386E+002, +0.00000000000E+000
+5.76026000000E+004, +2.31127278067E+002, +0.00000000000E+000
+5.82025750000E+004, +2.33516156399E+002, +0.00000000000E+000
+5.88025500000E+004, +2.35876085952E+002, +0.00000000000E+000
+5.94025250000E+004, +2.38250267605E+002, +0.00000000000E+000
+6.00025000000E+004, +2.40618830423E+002, +0.00000000000E+000
+6.06024750000E+004, +2.42979423412E+002, +0.00000000000E+000
+6.12024500000E+004, +2.45354049654E+002, +0.00000000000E+000
+6.18024250000E+004, +2.47734206440E+002, +0.00000000000E+000
+6.24024000000E+004, +2.50095930463E+002, +0.00000000000E+000
+6.30023750000E+004, +2.52454668398E+002, +0.00000000000E+000
+6.36023500000E+004, +2.54823808430E+002, +0.00000000000E+000
+6.42023250000E+004, +2.57189546781E+002, +0.00000000000E+000
+6.48023000000E+004, +2.59567182548E+002, +0.00000000000E+000
+6.54022750000E+004, +2.61941631476E+002, +0.00000000000E+000
+6.60022500000E+004, +2.64288684133E+002, +0.00000000000E+000
+6.66022250000E+004, +2.66662573885E+002, +0.00000000000E+000
+6.72022000000E+004, +2.69045894937E+002, +0.00000000000E+000
+6.78021750000E+004, +2.71396891398E+002, +0.00000000000E+000
+6.84021500000E+004, +2.73753344186E+002, +0.00000000000E+000
+6.90021250000E+004, +2.76155713924E+002, +0.00000000000E+000
+6.96021000000E+004, +2.78510914722E+002, +0.00000000000E+000
+7.02020750000E+004, +2.80896671031E+002, +0.00000000000E+000
+7.08020500000E+004, +2.83253697163E+002, +0.00000000000E+000
+7.14020250000E+004, +2.85614348181E+002, +0.00000000000E+000
+7.20020000000E+004, +2.88001319444E+002, +0.00000000000E+000
+7.26019750000E+004, +2.90370290085E+002, +0.00000000000E+000
+7.32019500000E+004, +2.92718925390E+002, +0.00000000000E+000
+7.38019250000E+004, +2.95089143250E+002, +0.00000000000E+000
+7.44019000000E+004, +2.97433394802E+002, +0.00000000000E+000
+7.50018750000E+004, +2.99822573763E+002, +0.00000000000E+000
+7.56018500000E+004, +3.02172207311E+002, +0.00000000000E+000
+7.62018250000E+004, +3.04520752793E+002, +0.00000000000E+000
+7.68018000000E+004, +3.06862354758E+002, +0.00000000000E+000
+7.74017750000E+004, +3.09277910542E+002, +0.00000000000E+000
+7.80017500000E+004, +3.11636038375E+002, +0.00000000000E+000
+7.86017250000E+004, +3.13989762556E+002, +0.00000000000E+000
+7.92017000000E+004, +3.16342179872E+002, +0.00000000000E+000
+7.98016750000E+004, +3.18740161900E+002, +0.00000000000E+000
+8.04016500000E+004, +3.21089444456E+002, +0.00000000000E+000
+8.10016250000E+004, +3.23470446608E+002, +0.00000000000E+000
+8.16016000000E+004, +3.25850767993E+002, +0.00000000000E+000
+8.22015750000E+004, +3.28192879849E+002, +0.00000000000E+000
+8.28015500000E+004, +3.30547016629E+002, +0.00000000000E+000
+8.34015250000E+004, +3.32922170941E+002, +0.00000000000E+000
+8.40015000000E+004, +3.35321433310E+002, +0.00000000000E+000
+8.46014750000E+004, +3.37681729759E+002, +0.00000000000E+000
+8.52014500000E+004, +3.40030432260E+002, +0.00000000000E+000
+8.58014250000E+004, +3.42394116275E+002, +0.00000000000E+000
+8.64014000000E+004, +3.44817445596E+002, +0.00000000000E+000
+8.70013750000E+004, +3.47168087420E+002, +0.00000000000E+000
+8.76013500000E+004, +3.49484009289E+002, +0.00000000000E+000
+8.82013250000E+004, +3.51887158899E+002, +0.00000000000E+000
+8.88013000000E+004, +3.54284218137E+002, +0.00000000000E+000
+8.94012750000E+004, +3.56623482408E+002, +0.00000000000E+000
+9.00012500000E+004, +3.58987576304E+002, +0.00000000000E+000
+9.06012250000E+004, +3.61385016344E+002, +0.00000000000E+000
+9.12012000000E+004, +3.63737423671E+002, +0.00000000000E+000
+9.18011750000E+004, +3.66102423666E+002, +0.00000000000E+000
+9.24011500000E+004, +3.68490967478E+002, +0.00000000000E+000
+9.30011250000E+004, +3.70860042374E+002, +0.00000000000E+000
+9.36011000000E+004, +3.73257457592E+002, +0.00000000000E+000
+9.42010750000E+004, +3.75511062153E+002, +0.00000000000E+000
+9.48010500000E+004, +3.77962698729E+002, +0.00000000000E+000
+9.54010250000E+004, +3.80289754157E+002, +0.00000000000E+000
+9.60010000000E+004, +3.82630640133E+002, +0.00000000000E+000
+9.66009750000E+004, +3.85055956233E+002, +0.00000000000E+000
+9.72009500000E+004, +3.87403053970E+002, +0.00000000000E+000
+9.78009250000E+004, +3.89736914995E+002, +0.00000000000E+000
+9.84009000000E+004, +3.92188928615E+002, +0.00000000000E+000
+9.90008750000E+004, +3.94508411610E+002, +0.00000000000E+000
+9.96008500000E+004, +3.96880475216E+002, +0.00000000000E+000
+1.00200825000E+005, +3.99272597049E+002, +0.00000000000E+000
+1.00800800000E+005, +4.01626140494E+002, +0.00000000000E+000
+1.01400775000E+005, +4.03983737021E+002, +0.00000000000E+000
+1.02000750000E+005, +4.06326297601E+002, +0.00000000000E+000
+1.02600725000E+005, +4.08747309381E+002, +0.00000000000E+000
+1.03200700000E+005, +4.11092520961E+002, +0.00000000000E+000
+1.03800675000E+005, +4.13467250750E+002, +0.00000000000E+000
+1.04400650000E+005, +4.15847568411E+002, +0.00000000000E+000
+1.05000625000E+005, +4.18202271430E+002, +0.00000000000E+000
+1.05600600000E+005, +4.20519668129E+002, +0.00000000000E+000
+1.06200575000E+005, +4.22969853252E+002, +0.00000000000E+000
+1.06800550000E+005, +4.25315640485E+002, +0.00000000000E+000
+1.07400525000E+005, +4.27713380133E+002, +0.00000000000E+000
+1.08000500000E+005, +4.30041498551E+002, +0.00000000000E+000
+1.08600475000E+005, +4.32401428267E+002, +0.00000000000E+000
+1.09200450000E+005, +4.34769852876E+002, +0.00000000000E+000
+1.09800425000E+005, +4.37146901958E+002, +0.00000000000E+000
+1.10400400000E+005, +4.39501178653E+002, +0.00000000000E+000
+1.11000375000E+005, +4.41934262588E+002, +0.00000000000E+000
+1.11600350000E+005, +4.44291091058E+002, +0.00000000000E+000
+1.12200325000E+005, +4.46689390137E+002, +0.00000000000E+000
+1.12800300000E+005, +4.49042024230E+002, +0.00000000000E+000
+1.13400275000E+005, +4.51402208699E+002, +0.00000000000E+000
+1.14000250000E+005, +4.53768995543E+002, +0.00000000000E+000
+1.14600225000E+005, +4.56116767085E+002, +0.00000000000E+000
+1.15200200000E+005, +4.58487936223E+002, +0.00000000000E+000
+1.15800175000E+005, +4.60843914071E+002, +0.00000000000E+000
+1.16400150000E+005, +4.63219391138E+002, +0.00000000000E+000
+1.17000125000E+005, +4.65603394896E+002, +0.00000000000E+000
+1.17600100000E+005, +4.67963422327E+002, +0.00000000000E+000
+1.18200075000E+005, +4.70334957246E+002, +0.00000000000E+000
+1.18800050000E+005, +4.72718712929E+002, +0.00000000000E+000
+1.19400025000E+005, +4.75064028277E+002, +0.00000000000E+000
+1.20000000000E+005, +4.77456096653E+002, +0.00000000000E+000
